Frequency (Hz)	Level (dB)
0.488281	-45.166504
0.976562	-45.113831
1.464844	-45.027409
1.953125	-44.909229
2.441406	-44.761967
2.929688	-44.588879
3.417969	-44.393696
3.906250	-44.180515
4.394531	-43.953697
4.882812	-43.717766
5.371094	-43.477329
5.859375	-43.236996
6.347656	-43.001331
6.835938	-42.774788
7.324219	-42.561653
7.812500	-42.365986
8.300781	-42.191559
8.789062	-42.041756
9.277344	-41.919464
9.765625	-41.826931
10.253906	-41.765575
10.742188	-41.735756
11.230469	-41.736519
11.718750	-41.765301
12.207031	-41.817703
12.695312	-41.887363
13.183594	-41.966080
13.671875	-42.044296
14.160156	-42.112141
14.648438	-42.160858
15.136719	-42.184494
15.625000	-42.181297
16.113281	-42.154297
16.601562	-42.110832
17.089844	-42.060997
17.578125	-42.015556
18.066406	-41.983749
18.554688	-41.971542
19.042969	-41.980446
19.531250	-42.007145
20.019531	-42.044067
20.507812	-42.080982
20.996094	-42.107582
21.484375	-42.116547
21.972656	-42.106060
22.460938	-42.080696
22.949219	-42.050087
23.437500	-42.025700
23.925781	-42.016876
24.414062	-42.027317
24.902344	-42.053226
25.390625	-42.083961
25.878906	-42.105831
26.367188	-42.108288
26.855469	-42.089909
27.343750	-42.060387
27.832031	-42.036320
28.320312	-42.032410
28.808594	-42.052586
29.296875	-42.086067
29.785156	-42.111992
30.273438	-42.112404
30.761719	-42.086182
31.250000	-42.052246
31.738281	-42.036999
32.226562	-42.054310
32.714844	-42.092800
33.203125	-42.121689
33.691406	-42.115372
34.179688	-42.078495
34.667969	-42.045017
35.156250	-42.048050
35.644531	-42.087608
36.132812	-42.126549
36.621094	-42.124527
37.109375	-42.082565
37.597656	-42.046333
38.085938	-42.057842
38.574219	-42.107418
39.062500	-42.139175
39.550781	-42.114117
40.039062	-42.062412
40.527344	-42.049881
41.015625	-42.095650
41.503906	-42.142979
41.992188	-42.128044
42.480469	-42.070545
42.968750	-42.051804
43.457031	-42.101589
43.945312	-42.150890
44.433594	-42.125919
44.921875	-42.064121
45.410156	-42.062263
45.898438	-42.126980
46.386719	-42.157063
46.875000	-42.102283
47.363281	-42.054340
47.851562	-42.096695
48.339844	-42.160614
48.828125	-42.134064
49.316406	-42.064236
49.804688	-42.079353
50.292969	-42.155788
50.781250	-42.151768
51.269531	-42.074417
51.757812	-42.074760
52.246094	-42.156116
52.734375	-42.158295
53.222656	-42.076397
53.710938	-42.080177
54.199219	-42.165840
54.687500	-42.154007
55.175781	-42.069923
55.664062	-42.098190
56.152344	-42.180916
56.640625	-42.133972
57.128906	-42.064259
57.617188	-42.134064
58.105469	-42.185345
58.593750	-42.097233
59.082031	-42.081097
59.570312	-42.179535
60.058594	-42.154331
60.546875	-42.068165
61.035156	-42.138668
61.523438	-42.191624
62.011719	-42.091751
62.500000	-42.098961
62.988281	-42.198292
63.476562	-42.128498
63.964844	-42.077103
64.453125	-42.185944
64.941406	-42.160717
65.429688	-42.071602
65.917969	-42.169151
66.406250	-42.182388
66.894531	-42.074364
67.382812	-42.156784
67.871094	-42.194576
68.359375	-42.078224
68.847656	-42.152431
69.335938	-42.199806
69.824219	-42.079311
70.312500	-42.157207
70.800781	-42.198795
71.289062	-42.077286
71.777344	-42.171337
72.265625	-42.189480
72.753906	-42.075611
73.242188	-42.193329
73.730469	-42.168156
74.218750	-42.081997
74.707031	-42.216846
75.195312	-42.133640
75.683594	-42.106743
76.171875	-42.227333
76.660156	-42.094742
77.148438	-42.154945
77.636719	-42.205383
78.125000	-42.075703
78.613281	-42.211205
79.101562	-42.145645
79.589844	-42.106030
80.078125	-42.231236
80.566406	-42.083595
81.054688	-42.183186
81.542969	-42.175995
82.031250	-42.087414
82.519531	-42.234604
83.007812	-42.087685
83.496094	-42.176273
83.984375	-42.175510
84.472656	-42.086823
84.960938	-42.233585
85.449219	-42.073433
85.937500	-42.195412
86.425781	-42.140797
86.914062	-42.109032
87.402344	-42.213326
87.890625	-42.057545
88.378906	-42.223183
88.867188	-42.074871
89.355469	-42.167122
89.843750	-42.135841
90.332031	-42.090282
90.820312	-42.191353
91.308594	-42.037556
91.796875	-42.206055
92.285156	-42.026211
92.773438	-42.174526
93.261719	-42.047432
93.750000	-42.113262
94.238281	-42.080170
94.726562	-42.043415
95.214844	-42.104023
95.703125	-41.978966
96.191406	-42.106087
96.679688	-41.923763
97.167969	-42.081554
97.656250	-41.873840
98.144531	-42.030674
98.632812	-41.820896
99.121094	-41.954983
99.609375	-41.754971
100.097656	-41.854588
100.585938	-41.665844
101.074219	-41.726994
101.562500	-41.543598
102.050781	-41.567123
102.539062	-41.378933
103.027344	-41.368275
103.515625	-41.163868
104.003906	-41.123787
104.492188	-40.893234
104.980469	-40.829391
105.468750	-40.566917
105.957031	-40.485992
106.445312	-40.192482
106.933594	-40.102394
107.421875	-39.787277
107.910156	-39.697178
108.398438	-39.379150
108.886719	-39.299042
109.375000	-39.005405
109.863281	-38.945362
110.351562	-38.710003
110.839844	-38.679108
111.328125	-38.539070
111.816406	-38.543938
112.304688	-38.533531
112.792969	-38.576054
113.281250	-38.715446
113.769531	-38.788925
114.257812	-39.061733
114.746094	-39.145363
115.234375	-39.464478
115.722656	-39.521156
116.210938	-39.718102
116.699219	-39.711781
117.187500	-39.639004
117.675781	-39.574955
118.164062	-39.282932
118.652344	-39.214649
119.140625	-38.937168
119.628906	-38.917015
120.117188	-38.873379
120.605469	-38.914204
121.093750	-39.152752
121.582031	-39.217907
122.070312	-39.520206
122.558594	-39.538906
123.046875	-39.535683
123.535156	-39.485806
124.023438	-39.178852
124.511719	-39.134922
125.000000	-38.958775
125.488281	-38.978985
125.976562	-39.184181
126.464844	-39.236156
126.953125	-39.517178
127.441406	-39.515640
127.929688	-39.371796
128.417969	-39.325401
128.906250	-39.037254
129.394531	-39.037567
129.882812	-39.163097
130.371094	-39.204906
130.859375	-39.494473
131.347656	-39.489643
131.835938	-39.299210
132.324219	-39.266102
132.812500	-39.052929
133.300781	-39.071198
133.789062	-39.348251
134.277344	-39.369530
134.765625	-39.433388
135.253906	-39.406921
135.742188	-39.095646
136.230469	-39.099419
136.718750	-39.280704
137.207031	-39.300632
137.695312	-39.447575
138.183594	-39.428879
138.671875	-39.113342
139.160156	-39.119095
139.648438	-39.322739
140.136719	-39.332314
140.625000	-39.396484
141.113281	-39.383957
141.601562	-39.114346
142.089844	-39.126007
142.578125	-39.434559
143.066406	-39.428921
143.554688	-39.245926
144.042969	-39.249199
144.531250	-39.235775
145.019531	-39.237865
145.507812	-39.430454
145.996094	-39.426937
146.484375	-39.136772
146.972656	-39.145519
147.460938	-39.460876
147.949219	-39.449512
148.437500	-39.174530
148.925781	-39.190647
149.414062	-39.395157
149.902344	-39.377232
150.390625	-39.253296
150.878906	-39.274860
151.367188	-39.328907
151.855469	-39.307362
152.343750	-39.310661
152.832031	-39.335640
153.320312	-39.297520
153.808594	-39.272968
154.296875	-39.330540
154.785156	-39.359715
155.273438	-39.304455
155.761719	-39.274376
156.250000	-39.311901
156.738281	-39.348106
157.226562	-39.350117
157.714844	-39.311646
158.203125	-39.255985
158.691406	-39.298893
159.179688	-39.429050
159.667969	-39.386635
160.156250	-39.184113
160.644531	-39.221008
161.132812	-39.496529
161.621094	-39.473026
162.109375	-39.168629
162.597656	-39.170799
163.085938	-39.448635
163.574219	-39.476936
164.062500	-39.302761
164.550781	-39.252483
165.039062	-39.253414
165.527344	-39.315063
166.015625	-39.505573
166.503906	-39.460762
166.992188	-39.166115
167.480469	-39.166779
167.968750	-39.414402
168.457031	-39.467625
168.945312	-39.427711
169.433594	-39.355015
169.921875	-39.151394
170.410156	-39.188766
170.898438	-39.484028
171.386719	-39.521423
171.875000	-39.406597
172.363281	-39.325619
172.851562	-39.140972
173.339844	-39.181572
173.828125	-39.466259
174.316406	-39.521587
174.804688	-39.491299
175.292969	-39.404568
175.781250	-39.140301
176.269531	-39.138412
176.757812	-39.313156
177.246094	-39.407375
177.734375	-39.608517
178.222656	-39.572975
178.710938	-39.327309
179.199219	-39.239010
179.687500	-39.099564
180.175781	-39.147182
180.664062	-39.393417
181.152344	-39.489491
181.640625	-39.653301
182.128906	-39.607513
182.617188	-39.378384
183.105469	-39.272011
183.593750	-39.065918
184.082031	-39.074146
184.570312	-39.199924
185.058594	-39.312096
185.546875	-39.596039
186.035156	-39.656181
186.523438	-39.704090
187.011719	-39.619358
187.500000	-39.375034
187.988281	-39.255234
188.476562	-39.024792
188.964844	-38.996971
189.453125	-38.994743
189.941406	-39.078663
190.429688	-39.297531
190.917969	-39.426373
191.406250	-39.698364
191.894531	-39.767086
192.382812	-39.880207
192.871094	-39.826786
193.359375	-39.703568
193.847656	-39.565815
194.335938	-39.308567
194.824219	-39.169060
195.312500	-38.919758
195.800781	-38.833603
196.289062	-38.676201
196.777344	-38.660023
197.265625	-38.619843
197.753906	-38.667229
198.242188	-38.736198
198.730469	-38.830536
199.218750	-38.985382
199.707031	-39.106495
200.195312	-39.318413
200.683594	-39.445801
201.171875	-39.685513
201.660156	-39.800201
202.148438	-40.041027
202.636719	-40.126823
203.125000	-40.346645
203.613281	-40.390961
204.101562	-40.573204
204.589844	-40.567467
205.078125	-40.701134
205.566406	-40.640892
206.054688	-40.719830
206.542969	-40.604927
207.031250	-40.627022
207.519531	-40.462116
208.007812	-40.428890
208.496094	-40.224186
208.984375	-40.141045
209.472656	-39.912800
209.960938	-39.789650
210.449219	-39.559822
210.937500	-39.411507
211.425781	-39.206326
211.914062	-39.052612
212.402344	-38.900150
212.890625	-38.765152
213.378906	-38.692127
213.867188	-38.603073
214.355469	-38.630344
214.843750	-38.614956
215.332031	-38.749973
215.820312	-38.830009
216.308594	-39.053009
216.796875	-39.228786
217.285156	-39.471931
217.773438	-39.693703
218.261719	-39.833359
218.750000	-39.983807
219.238281	-39.909977
219.726562	-39.876583
220.214844	-39.634922
220.703125	-39.446102
221.191406	-39.230625
221.679688	-39.042583
222.167969	-39.017056
222.656250	-38.982895
223.144531	-39.167625
223.632812	-39.337532
224.121094	-39.569801
224.609375	-39.797203
225.097656	-39.798832
225.585938	-39.798923
226.074219	-39.553951
226.562500	-39.331581
227.050781	-39.187576
227.539062	-39.061939
228.027344	-39.208832
228.515625	-39.369564
229.003906	-39.592583
229.492188	-39.812443
229.980469	-39.716824
230.468750	-39.596912
230.957031	-39.360710
231.445312	-39.144897
231.933594	-39.218094
232.421875	-39.329517
232.910156	-39.561565
233.398438	-39.795315
233.886719	-39.672424
234.375000	-39.503571
234.863281	-39.313446
235.351562	-39.156475
235.839844	-39.343697
236.328125	-39.588425
236.816406	-39.680729
237.304688	-39.711620
237.792969	-39.459393
238.281250	-39.206524
238.769531	-39.302818
239.257812	-39.481750
239.746094	-39.640209
240.234375	-39.743069
240.722656	-39.492199
241.210938	-39.225559
241.699219	-39.331852
242.187500	-39.539711
242.675781	-39.650490
243.164062	-39.671265
243.652344	-39.431755
244.140625	-39.214966
244.628906	-39.421173
245.117188	-39.718948
245.605469	-39.640030
246.093750	-39.434967
246.582031	-39.352676
247.070312	-39.386135
247.558594	-39.589088
248.046875	-39.734310
248.535156	-39.483871
249.023438	-39.236053
249.511719	-39.451340
250.000000	-39.764870
250.488281	-39.601559
250.976562	-39.312988
251.464844	-39.389832
251.953125	-39.634525
252.441406	-39.632305
252.929688	-39.453304
253.417969	-39.397308
253.906250	-39.512482
254.394531	-39.617527
254.882812	-39.553432
255.371094	-39.423965
255.859375	-39.453571
256.347656	-39.600983
256.835938	-39.589230
257.324219	-39.441841
257.812500	-39.457970
258.300781	-39.598423
258.789062	-39.561111
259.277344	-39.445805
259.765625	-39.525997
260.253906	-39.607166
260.742188	-39.468136
261.230469	-39.444370
261.718750	-39.657856
262.207031	-39.612835
262.695312	-39.334740
263.183594	-39.456116
263.671875	-39.797634
264.160156	-39.593208
264.648438	-39.266411
265.136719	-39.501247
265.625000	-39.772865
266.113281	-39.537457
266.601562	-39.429264
267.089844	-39.572868
267.578125	-39.475792
268.066406	-39.481682
268.554688	-39.775558
269.042969	-39.607391
269.531250	-39.264385
270.019531	-39.501598
270.507812	-39.728909
270.996094	-39.545433
271.484375	-39.608566
271.972656	-39.593891
272.460938	-39.284168
272.949219	-39.485603
273.437500	-39.816574
273.925781	-39.586819
274.414062	-39.563236
274.902344	-39.579575
275.390625	-39.276257
275.878906	-39.484066
276.367188	-39.796135
276.855469	-39.598080
277.343750	-39.686378
277.832031	-39.600452
278.320312	-39.240643
278.808594	-39.476410
279.296875	-39.592243
279.785156	-39.562950
280.273438	-39.908161
280.761719	-39.657661
281.250000	-39.438347
281.738281	-39.522873
282.226562	-39.241001
282.714844	-39.460453
283.203125	-39.705132
283.691406	-39.619587
284.179688	-39.945045
284.667969	-39.690979
285.156250	-39.499031
285.644531	-39.523491
286.132812	-39.176712
286.621094	-39.408195
287.109375	-39.448227
287.597656	-39.540287
288.085938	-39.938843
288.574219	-39.739838
289.062500	-39.956078
289.550781	-39.718552
290.039062	-39.490700
290.527344	-39.491337
291.015625	-39.122375
291.503906	-39.322124
291.992188	-39.177464
292.480469	-39.381355
292.968750	-39.591778
293.457031	-39.625233
293.945312	-40.045483
294.433594	-39.859974
294.921875	-40.173763
295.410156	-39.893147
295.898438	-39.889385
296.386719	-39.692154
296.875000	-39.418247
297.363281	-39.382484
297.851562	-39.010944
298.339844	-39.113121
298.828125	-38.790581
299.316406	-38.971245
299.804688	-38.778343
300.292969	-38.980255
300.781250	-38.945221
301.269531	-39.124168
301.757812	-39.242416
302.246094	-39.367630
302.734375	-39.615677
303.222656	-39.667919
303.710938	-40.012436
304.199219	-39.981976
304.687500	-40.386200
305.175781	-40.270840
305.664062	-40.699436
306.152344	-40.502560
306.640625	-40.924911
307.128906	-40.653782
307.617188	-41.045376
308.105469	-40.710239
308.593750	-41.052273
309.082031	-40.666630
309.570312	-40.944622
310.058594	-40.526546
310.546875	-40.729149
311.035156	-40.302723
311.523438	-40.421631
312.011719	-40.017330
312.500000	-40.048439
312.988281	-39.701672
313.476562	-39.647041
313.964844	-39.394707
314.453125	-39.264702
314.941406	-39.140316
315.429688	-38.955570
315.917969	-38.983021
316.406250	-38.776333
316.894531	-38.961422
317.382812	-38.779369
317.871094	-39.096825
318.359375	-38.999020
318.847656	-39.373425
319.335938	-39.421356
319.824219	-39.710907
320.312500	-39.928486
320.800781	-39.956173
321.289062	-40.259079
321.777344	-39.959126
322.265625	-40.152966
322.753906	-39.724941
323.242188	-39.678463
323.730469	-39.447369
324.218750	-39.223713
324.707031	-39.348843
325.195312	-39.142632
325.683594	-39.509872
326.171875	-39.526039
326.660156	-39.781311
327.148438	-40.051338
327.636719	-39.861614
328.125000	-40.073002
328.613281	-39.661274
329.101562	-39.544754
329.589844	-39.473839
330.078125	-39.223278
330.566406	-39.561668
331.054688	-39.556339
331.542969	-39.784378
332.031250	-40.077141
332.519531	-39.770252
333.007812	-39.848034
333.496094	-39.569489
333.984375	-39.317139
334.472656	-39.577641
334.960938	-39.507286
335.449219	-39.765636
335.937500	-40.060143
336.425781	-39.730377
336.914062	-39.739868
337.402344	-39.580505
337.890625	-39.317451
338.378906	-39.678314
338.867188	-39.805462
339.355469	-39.766258
339.843750	-39.979458
340.332031	-39.632416
340.820312	-39.380932
341.308594	-39.662708
341.796875	-39.677692
342.285156	-39.757412
342.773438	-40.014370
343.261719	-39.650509
343.750000	-39.400955
344.238281	-39.690071
344.726562	-39.744522
345.214844	-39.739445
345.703125	-39.933472
346.191406	-39.655495
346.679688	-39.377819
347.167969	-39.732800
347.656250	-39.962666
348.144531	-39.699238
348.632812	-39.655025
349.121094	-39.695595
349.609375	-39.562031
350.097656	-39.734699
350.585938	-40.003586
351.074219	-39.682789
351.562500	-39.400105
352.050781	-39.746758
352.539062	-40.020428
353.027344	-39.685516
353.515625	-39.504063
354.003906	-39.750271
354.492188	-39.853073
354.980469	-39.691612
355.468750	-39.675251
355.957031	-39.753124
356.445312	-39.705292
356.933594	-39.696255
357.421875	-39.794083
357.910156	-39.758991
358.398438	-39.635555
358.886719	-39.696079
359.375000	-39.835651
359.863281	-39.771172
360.351562	-39.639774
360.839844	-39.688522
361.328125	-39.802261
361.816406	-39.790539
362.304688	-39.717854
362.792969	-39.676319
363.281250	-39.691822
363.769531	-39.808418
364.257812	-39.873638
364.746094	-39.676109
365.234375	-39.529419
365.722656	-39.798286
366.210938	-40.048531
366.699219	-39.719666
367.187500	-39.434418
367.675781	-39.732826
368.164062	-40.039528
368.652344	-39.811821
369.140625	-39.604424
369.628906	-39.657825
370.117188	-39.700600
370.605469	-39.846249
371.093750	-40.011246
371.582031	-39.715714
372.070312	-39.433563
372.558594	-39.711105
373.046875	-39.989727
373.535156	-39.874535
374.023438	-39.806866
374.511719	-39.658428
375.000000	-39.469059
375.488281	-39.760731
375.976562	-40.082176
376.464844	-39.885036
376.953125	-39.752956
377.441406	-39.642914
377.929688	-39.461788
378.417969	-39.746311
378.906250	-40.059448
379.394531	-39.927563
379.882812	-39.892071
380.371094	-39.683887
380.859375	-39.411697
381.347656	-39.646362
381.835938	-39.833878
382.324219	-39.928127
382.812500	-40.156120
383.300781	-39.863613
383.789062	-39.613041
384.277344	-39.588531
384.765625	-39.427685
385.253906	-39.690739
385.742188	-39.957176
386.230469	-39.985806
386.718750	-40.189106
387.207031	-39.905910
387.695312	-39.678230
388.183594	-39.590580
388.671875	-39.351440
389.160156	-39.560875
389.648438	-39.672993
390.136719	-39.866322
390.625000	-40.200130
391.113281	-40.087059
391.601562	-40.184055
392.089844	-39.909679
392.578125	-39.668549
393.066406	-39.564384
393.554688	-39.291862
394.042969	-39.424267
394.531250	-39.375092
395.019531	-39.606071
395.507812	-39.828941
395.996094	-39.964958
396.484375	-40.302910
396.972656	-40.219196
397.460938	-40.412868
397.949219	-40.165348
398.437500	-40.090237
398.925781	-39.848835
399.414062	-39.591358
399.902344	-39.467480
400.390625	-39.175323
400.878906	-39.184067
401.367188	-38.959805
401.855469	-39.068359
402.343750	-38.959129
402.832031	-39.123547
403.320312	-39.139278
403.808594	-39.318981
404.296875	-39.448017
404.785156	-39.609917
405.273438	-39.828606
405.761719	-39.947922
406.250000	-40.226677
406.738281	-40.286770
407.226562	-40.594578
407.714844	-40.586380
408.203125	-40.894409
408.691406	-40.815311
409.179688	-41.099464
409.667969	-40.951965
410.156250	-41.194019
410.644531	-40.984631
411.132812	-41.172112
411.621094	-40.911041
412.109375	-41.036495
412.597656	-40.738155
413.085938	-40.798603
413.574219	-40.482407
414.062500	-40.479313
414.550781	-40.169933
415.039062	-40.109627
415.527344	-39.836094
416.015625	-39.730183
416.503906	-39.523720
416.992188	-39.389297
417.480469	-39.280018
417.968750	-39.139584
418.457031	-39.151867
418.945312	-39.032978
419.433594	-39.178123
419.921875	-39.112064
420.410156	-39.375355
420.898438	-39.392262
421.386719	-39.712112
421.875000	-39.826355
422.363281	-40.075413
422.851562	-40.255920
423.339844	-40.274986
423.828125	-40.426022
424.316406	-40.169941
424.804688	-40.193130
425.292969	-39.844154
425.781250	-39.741413
426.269531	-39.563454
426.757812	-39.430851
427.246094	-39.554306
427.734375	-39.505527
428.222656	-39.834263
428.710938	-39.927181
429.199219	-40.133736
429.687500	-40.282238
430.175781	-40.087967
430.664062	-40.109325
431.152344	-39.766743
431.640625	-39.654518
432.128906	-39.629894
432.617188	-39.553555
433.105469	-39.875584
433.593750	-39.954830
434.082031	-40.123779
434.570312	-40.237728
435.058594	-39.933548
435.546875	-39.884251
436.035156	-39.681820
436.523438	-39.585903
437.011719	-39.862637
437.500000	-39.913940
437.988281	-40.106548
438.476562	-40.202965
438.964844	-39.870899
439.453125	-39.804718
439.941406	-39.726891
440.429688	-39.673691
440.917969	-40.026417
441.406250	-40.121082
441.894531	-40.002869
442.382812	-40.003796
442.871094	-39.734558
443.359375	-39.659317
443.847656	-39.977440
444.335938	-40.043892
444.824219	-40.026321
445.312500	-40.042702
445.800781	-39.749569
446.289062	-39.683815
446.777344	-40.016281
447.265625	-40.081421
447.753906	-39.969307
448.242188	-39.959320
