Frequency (Hz)	Level (dB)
0.672913	-44.885262
1.345825	-44.774506
2.018738	-44.595081
2.691650	-44.354370
3.364563	-44.061996
4.037476	-43.729332
4.710388	-43.368958
5.383301	-42.994236
6.056213	-42.618977
6.729126	-42.257122
7.402039	-41.922558
8.074951	-41.628815
8.747864	-41.388756
9.420776	-41.213974
10.093689	-41.113842
10.766602	-41.093929
11.439514	-41.153542
12.112427	-41.282299
12.785339	-41.456337
13.458252	-41.636379
14.131165	-41.772335
14.804077	-41.818878
15.476990	-41.758698
16.149902	-41.617447
16.822815	-41.455807
17.495728	-41.343121
18.168640	-41.329159
18.841553	-41.423172
19.514465	-41.582005
20.187378	-41.716862
20.860291	-41.738125
21.533203	-41.627403
22.206116	-41.465256
22.879028	-41.372402
23.551941	-41.421486
24.224854	-41.580677
24.897766	-41.716747
25.570679	-41.696384
26.243591	-41.536499
26.916504	-41.402828
27.589417	-41.436852
28.262329	-41.610054
28.935242	-41.726425
29.608154	-41.634918
30.281067	-41.453312
30.953979	-41.422028
31.626892	-41.589714
32.299805	-41.726547
32.972717	-41.620583
33.645630	-41.437023
34.318542	-41.467964
34.991455	-41.672295
35.664368	-41.703976
36.337280	-41.501736
37.010193	-41.436035
37.683105	-41.633972
38.356018	-41.721794
39.028931	-41.518337
39.701843	-41.442791
40.374756	-41.657532
41.047668	-41.706104
41.720581	-41.476768
42.393494	-41.492115
43.066406	-41.723949
43.739319	-41.619827
44.412231	-41.434734
45.085144	-41.631077
45.758057	-41.716282
46.430969	-41.466171
47.103882	-41.546608
47.776794	-41.745964
48.449707	-41.512615
49.122620	-41.504726
49.795532	-41.748737
50.468445	-41.533802
51.141357	-41.498085
51.814270	-41.751751
52.487183	-41.518887
53.160095	-41.523724
53.833008	-41.751629
54.505920	-41.474232
55.178833	-41.591702
55.851746	-41.714111
56.524658	-41.434841
57.197571	-41.696339
57.870483	-41.598946
58.543396	-41.476097
59.216309	-41.752804
59.889221	-41.450058
60.562134	-41.640297
61.235046	-41.622211
61.907959	-41.454479
62.580872	-41.739170
63.253784	-41.412868
63.926697	-41.672760
64.599609	-41.511841
65.272522	-41.512375
65.945435	-41.630962
66.618347	-41.380959
67.291260	-41.674137
67.964172	-41.319397
68.637085	-41.622856
69.309998	-41.302895
69.982910	-41.505638
70.655823	-41.285858
71.328735	-41.350510
72.001648	-41.227448
72.674561	-41.164207
73.347473	-41.096897
74.020386	-40.934021
74.693298	-40.870041
75.366211	-40.637608
76.039124	-40.527802
76.712036	-40.254845
77.384949	-40.062679
78.057861	-39.781300
78.730774	-39.492348
79.403687	-39.241562
80.076599	-38.872608
80.749512	-38.696774
81.422424	-38.300327
82.095337	-38.241219
82.768250	-37.903404
83.441162	-37.986969
84.114075	-37.818874
84.786987	-38.033573
85.459900	-38.145275
86.132812	-38.402847
86.805725	-38.810234
87.478638	-38.908131
88.151550	-39.322910
88.824463	-39.095325
89.497375	-39.032970
90.170288	-38.741894
90.843201	-38.320637
91.516113	-38.351768
92.189026	-38.183033
92.861938	-38.471096
93.534851	-38.857014
94.207764	-38.894772
94.880676	-39.150726
95.553589	-38.812157
96.226501	-38.411102
96.899414	-38.455967
97.572327	-38.371712
98.245239	-38.658382
98.918152	-39.129623
99.591064	-38.865540
100.263977	-38.611839
100.936890	-38.547722
101.609802	-38.379269
102.282715	-38.677315
102.955627	-39.134743
103.628540	-38.797653
104.301453	-38.411594
104.974365	-38.565536
105.647278	-38.745914
106.320190	-38.788101
106.993103	-38.850353
107.666016	-38.650646
108.338928	-38.421696
109.011841	-38.708057
109.684753	-39.068657
110.357666	-38.714836
111.030579	-38.338718
111.703491	-38.682568
112.376404	-39.110565
113.049316	-38.729481
113.722229	-38.343662
114.395142	-38.688705
115.068054	-39.077248
115.740967	-38.729706
116.413879	-38.438175
117.086792	-38.693287
117.759705	-38.864445
118.432617	-38.739765
119.105530	-38.776691
119.778442	-38.691032
120.451355	-38.433170
121.124268	-38.729126
121.797180	-39.170464
122.470093	-38.751682
123.143005	-38.422478
123.815918	-38.639816
124.488831	-38.641010
125.161743	-38.800293
125.834656	-39.183090
126.507568	-38.751343
127.180481	-38.431240
127.853394	-38.582222
128.526306	-38.450527
129.199219	-38.779560
129.872131	-39.201996
130.545044	-38.897594
131.217957	-38.938099
131.890869	-38.620449
132.563782	-38.253822
133.236694	-38.481407
133.909607	-38.368732
134.582520	-38.746685
135.255432	-39.079041
135.928345	-39.048893
136.601257	-39.396999
137.274170	-38.947155
137.947083	-38.904171
138.619995	-38.536716
139.292908	-38.232193
139.965820	-38.191898
140.638733	-37.884708
141.311646	-38.112274
141.984558	-37.941544
142.657471	-38.301628
143.330383	-38.302891
144.003296	-38.673462
144.676208	-38.824238
145.349121	-39.116329
146.022034	-39.364140
146.694946	-39.526112
147.367859	-39.806061
148.040771	-39.823059
148.713684	-40.070248
149.386597	-39.958527
150.059509	-40.115917
150.732422	-39.913994
151.405334	-39.937572
152.078247	-39.697990
152.751160	-39.563877
153.424072	-39.345787
154.096985	-39.060966
154.769897	-38.920719
155.442810	-38.532936
156.115723	-38.511765
156.788635	-38.112923
157.461548	-38.223568
158.134460	-37.944191
158.807373	-38.156570
159.480286	-38.143425
160.153198	-38.367561
160.826111	-38.705612
161.499023	-38.788902
162.171936	-39.297230
162.844849	-39.132862
163.517761	-39.275414
164.190674	-39.051235
164.863586	-38.655521
165.536499	-38.665024
166.209412	-38.323704
166.882324	-38.510075
167.555237	-38.768612
168.228149	-38.815331
168.901062	-39.257881
169.573975	-39.068527
170.246887	-38.768208
170.919800	-38.767765
171.592712	-38.462410
172.265625	-38.608788
172.938538	-39.067951
173.611450	-38.976158
174.284363	-38.956886
174.957275	-38.903431
175.630188	-38.507015
176.303101	-38.624855
176.976013	-39.099918
177.648926	-39.001999
178.321838	-38.780792
178.994751	-38.809448
179.667664	-38.705753
180.340576	-38.736164
181.013489	-39.093540
181.686401	-39.033672
182.359314	-38.572289
183.032227	-38.635574
183.705139	-39.135864
184.378052	-39.072845
185.050964	-38.595051
185.723877	-38.646347
186.396790	-39.115929
187.069702	-39.071548
187.742615	-38.609478
188.415527	-38.641251
189.088440	-39.125465
189.761353	-39.108959
190.434265	-38.618538
191.107178	-38.615490
191.780090	-39.074936
192.453003	-39.106358
193.125916	-38.764702
193.798828	-38.721416
194.471741	-38.811958
195.144653	-38.850437
195.817566	-39.088577
196.490479	-39.094620
197.163391	-38.629696
197.836304	-38.572395
198.509216	-38.951633
199.182129	-39.026981
199.855042	-39.074368
200.527954	-39.080048
201.200867	-38.629974
201.873779	-38.537415
202.546692	-38.814762
203.219604	-38.869324
203.892517	-39.191696
204.565430	-39.301224
205.238342	-38.897224
205.911255	-38.817101
206.584167	-38.544117
207.257080	-38.428310
207.929993	-38.734749
208.602905	-38.780254
209.275818	-39.188576
209.948730	-39.367519
210.621643	-39.279423
211.294556	-39.357765
211.967468	-38.890091
212.640381	-38.781723
213.313293	-38.436226
213.986206	-38.253872
214.659119	-38.226360
215.332031	-38.082401
216.004944	-38.317097
216.677856	-38.267204
217.350769	-38.638042
218.023682	-38.693214
218.696594	-39.079281
219.369507	-39.220215
220.042419	-39.530643
220.715332	-39.718342
221.388245	-39.900719
222.061157	-40.086388
222.734070	-40.125729
223.406982	-40.260048
224.079895	-40.170620
224.752808	-40.211269
225.425720	-40.026848
226.098633	-39.945511
226.771545	-39.712994
227.444458	-39.503704
228.117371	-39.279186
228.790283	-38.966328
229.463196	-38.809422
230.136108	-38.451107
230.809021	-38.415306
231.481934	-38.100758
232.154846	-38.219109
232.827759	-38.060707
233.500671	-38.321007
234.173584	-38.429920
234.846497	-38.727310
235.519409	-39.120678
236.192322	-39.215466
236.865234	-39.608990
237.538147	-39.325787
238.211060	-39.265274
238.883972	-38.936150
239.556885	-38.552616
240.229797	-38.612125
240.902710	-38.468575
241.575623	-38.819084
242.248535	-39.185257
242.921448	-39.206581
243.594360	-39.424278
244.267273	-39.017200
244.940186	-38.653206
245.613098	-38.730709
246.286011	-38.677731
246.958923	-39.023003
247.631836	-39.445312
248.304749	-39.103500
248.977661	-38.857273
249.650574	-38.802769
250.323486	-38.683231
250.996399	-39.046555
251.669312	-39.443008
252.342224	-39.015762
253.015137	-38.665840
253.688049	-38.879845
254.360962	-39.075443
255.033875	-39.101704
255.706787	-39.111725
256.379700	-38.885620
257.052612	-38.727180
257.725525	-39.075924
258.398438	-39.355595
259.071350	-38.923866
259.744263	-38.628757
260.417175	-39.061256
261.090088	-39.407951
261.763000	-38.935963
262.435913	-38.634155
263.108826	-39.067535
263.781738	-39.366753
264.454651	-38.944107
265.127563	-38.743504
265.800476	-39.049313
266.473389	-39.133694
267.146301	-39.004753
267.819214	-39.103188
268.492126	-38.964138
269.165039	-38.698132
269.837952	-39.095634
270.510864	-39.482346
271.183777	-38.956352
271.856689	-38.726715
272.529602	-38.979744
273.202515	-38.906048
273.875427	-39.139015
274.548340	-39.501488
275.221252	-38.954426
275.894165	-38.737553
276.567078	-38.900860
277.239990	-38.717705
277.912903	-39.158470
278.585815	-39.496494
279.258728	-39.139751
279.931641	-39.262959
280.604553	-38.838058
281.277466	-38.549282
281.950378	-38.812447
282.623291	-38.638027
283.296204	-39.134911
283.969116	-39.357662
284.642029	-39.360752
285.314941	-39.708275
285.987854	-39.161427
286.660767	-39.224075
287.333679	-38.743290
288.006592	-38.536167
288.679504	-38.452232
289.352417	-38.169937
290.025330	-38.432735
290.698242	-38.212830
291.371155	-38.662918
292.044067	-38.564831
292.716980	-39.050377
293.389893	-39.078793
294.062805	-39.486282
294.735718	-39.609497
295.408630	-39.872765
296.081543	-40.036240
296.754456	-40.137440
297.427368	-40.276264
298.100281	-40.238506
298.773193	-40.289227
299.446106	-40.163269
300.119019	-40.075535
300.791931	-39.925694
301.464844	-39.675236
302.137756	-39.566570
302.810669	-39.168339
303.483582	-39.153923
304.156494	-38.670650
304.829407	-38.778408
305.502319	-38.321327
306.175232	-38.540508
306.848145	-38.260975
307.521057	-38.526604
308.193970	-38.584911
308.866882	-38.764023
309.539795	-39.217144
310.212708	-39.144386
310.885620	-39.693695
311.558533	-39.383537
312.231445	-39.429756
312.904358	-39.255211
313.577271	-38.780720
314.250183	-38.959957
314.923096	-38.662064
315.596008	-38.903389
316.268921	-39.280140
316.941833	-39.147850
317.614746	-39.539944
318.287659	-39.272381
318.960571	-38.878654
319.633484	-39.067776
320.306396	-38.850578
320.979309	-39.002903
321.652222	-39.522087
322.325134	-39.216549
322.998047	-39.063286
323.670959	-39.171467
324.343872	-38.865150
325.016785	-39.018459
325.689697	-39.523842
326.362610	-39.218994
327.035522	-38.892830
327.708435	-39.144276
328.381348	-39.192009
329.054260	-39.063362
329.727173	-39.274773
330.400085	-39.269516
331.072998	-38.912022
331.745911	-39.021564
332.418823	-39.463322
333.091736	-39.277416
333.764648	-38.841213
334.437561	-39.042580
335.110474	-39.499920
335.783386	-39.273903
336.456299	-38.847828
337.129211	-39.036060
337.802124	-39.471237
338.475037	-39.317810
339.147949	-38.933010
339.820862	-38.988190
340.493774	-39.289722
341.166687	-39.367542
341.839600	-39.226360
342.512512	-39.011948
343.185425	-38.922474
343.858337	-39.222507
344.531250	-39.557026
345.204163	-39.296452
345.877075	-38.920959
346.549988	-38.931667
347.222900	-39.100613
347.895813	-39.361885
348.568726	-39.573650
349.241638	-39.282856
349.914551	-38.927719
350.587463	-38.879040
351.260376	-38.935505
351.933289	-39.246468
352.606201	-39.591278
353.279114	-39.527824
353.952026	-39.371471
354.624939	-39.051823
355.297852	-38.763210
355.970764	-38.783287
356.643677	-38.859001
357.316589	-39.166496
357.989502	-39.492207
358.662415	-39.657238
359.335327	-39.780643
360.008240	-39.557877
360.681152	-39.342804
361.354065	-39.005157
362.026978	-38.725967
362.699890	-38.547092
363.372803	-38.398178
364.045715	-38.431721
364.718628	-38.447830
365.391541	-38.644447
366.064453	-38.787640
366.737366	-39.072586
367.410278	-39.282555
368.083191	-39.583084
368.756104	-39.798325
369.429016	-40.055431
370.101929	-40.223629
370.774841	-40.398705
371.447754	-40.481644
372.120667	-40.557930
372.793579	-40.532154
373.466492	-40.511395
374.139404	-40.368359
374.812317	-40.266392
375.485229	-40.015953
376.158142	-39.859985
376.831055	-39.536461
377.503967	-39.363052
378.176880	-39.028053
378.849792	-38.879711
379.522705	-38.617424
380.195618	-38.537323
380.868530	-38.441296
381.541443	-38.465691
382.214355	-38.610779
382.887268	-38.752239
383.560181	-39.123600
384.233093	-39.328236
384.906006	-39.682343
385.578918	-39.782528
386.251831	-39.704933
386.924744	-39.580887
387.597656	-39.157475
388.270569	-38.990669
388.943481	-38.825005
389.616394	-38.843670
390.289307	-39.192661
390.962219	-39.381306
391.635132	-39.654236
392.308044	-39.667191
392.980957	-39.264023
393.653870	-39.090797
394.326782	-38.956223
394.999695	-39.003246
395.672607	-39.460842
396.345520	-39.619007
397.018433	-39.423458
397.691345	-39.271332
398.364258	-39.010284
399.037170	-39.016357
399.710083	-39.489784
400.382996	-39.635281
401.055908	-39.277328
401.728821	-39.108971
402.401733	-39.164822
403.074646	-39.290390
403.747559	-39.515141
404.420471	-39.473049
405.093384	-39.082642
405.766296	-39.050312
406.439209	-39.526787
407.112122	-39.624691
407.785034	-39.116844
408.457947	-39.003147
409.130859	-39.504433
409.803772	-39.650185
410.476685	-39.132324
411.149597	-39.005569
411.822510	-39.514717
412.495422	-39.644127
413.168335	-39.136436
413.841248	-39.056816
414.514160	-39.484947
415.187073	-39.509811
415.859985	-39.243420
416.532898	-39.308849
417.205811	-39.292099
417.878723	-39.141953
418.551636	-39.487709
419.224548	-39.695839
419.897461	-39.152546
420.570374	-39.033848
421.243286	-39.387432
421.916199	-39.339558
422.589111	-39.488571
423.262024	-39.697742
423.934937	-39.153305
424.607849	-39.027859
425.280762	-39.275551
425.953674	-39.162403
426.626587	-39.579388
427.299500	-39.793514
427.972412	-39.374203
428.645325	-39.446880
429.318237	-39.069038
429.991150	-38.878590
430.664062	-39.194733
431.336975	-39.080032
432.009888	-39.577740
432.682800	-39.741455
433.355713	-39.694130
434.028625	-39.933949
434.701538	-39.379963
435.374451	-39.411938
436.047363	-38.961258
436.720276	-38.799370
437.393188	-38.739063
438.066101	-38.519920
438.739014	-38.795105
439.411926	-38.623013
440.084839	-39.078869
440.757751	-39.004150
441.430664	-39.491432
442.103577	-39.520428
442.776489	-39.927467
443.449402	-40.033459
444.122314	-40.296413
444.795227	-40.430344
445.468140	-40.533146
446.141052	-40.635250
446.813965	-40.600544
447.486877	-40.612354
448.159790	-40.487789
448.832703	-40.364513
449.505615	-40.210007
450.178528	-39.934143
450.851440	-39.811363
451.524353	-39.405006
452.197266	-39.367126
452.870178	-38.897953
453.543091	-38.978634
454.216003	-38.557709
454.888916	-38.758274
455.561829	-38.530186
456.234741	-38.800831
456.907654	-38.912231
457.580566	-39.125008
458.253479	-39.607944
458.926392	-39.567844
459.599304	-40.080505
460.272217	-39.753208
460.945129	-39.714722
461.618042	-39.488697
462.290955	-39.006161
462.963867	-39.164433
463.636780	-38.945442
464.309692	-39.238300
464.982605	-39.673359
465.655518	-39.571358
466.328430	-39.882751
467.001343	-39.544407
467.674255	-39.106136
468.347168	-39.276142
469.020081	-39.161030
469.692993	-39.394627
470.365906	-39.921299
471.038818	-39.565140
471.711731	-39.306629
472.384644	-39.366531
473.057556	-39.165600
473.730469	-39.414814
474.403381	-39.913776
475.076294	-39.523060
475.749207	-39.121372
476.422119	-39.384430
477.095032	-39.565380
477.767944	-39.483318
478.440857	-39.561749
479.113770	-39.461418
479.786682	-39.210518
480.459595	-39.435658
481.132507	-39.814308
481.805420	-39.496387
482.478333	-39.105030
483.151245	-39.432537
483.824158	-39.871315
484.497070	-39.503895
485.169983	-39.110775
485.842896	-39.434128
486.515808	-39.825779
487.188721	-39.523220
487.861633	-39.227764
488.534546	-39.412899
489.207458	-39.584679
489.880371	-39.561501
490.553284	-39.594128
491.226196	-39.400517
491.899109	-39.155781
492.572021	-39.527153
493.244934	-39.953934
493.917847	-39.527462
494.590759	-39.211555
495.263672	-39.356590
495.936584	-39.358177
496.609497	-39.615398
497.282410	-39.978626
497.955322	-39.522564
498.628235	-39.224171
499.301147	-39.297222
499.974060	-39.174831
500.646973	-39.569653
501.319885	-39.957066
501.992798	-39.712158
502.665710	-39.753578
503.338623	-39.361130
504.011536	-39.031395
504.684448	-39.202648
505.357361	-39.097614
506.030273	-39.521427
506.703186	-39.811623
507.376099	-39.869976
508.049011	-40.183121
508.721924	-39.747032
509.394836	-39.716537
510.067749	-39.288258
510.740662	-39.026745
511.413574	-38.917469
512.086487	-38.650494
512.759399	-38.838280
513.432312	-38.683784
514.105225	-39.043018
514.778137	-39.029972
515.451050	-39.435005
516.123962	-39.543495
516.796875	-39.895988
517.469788	-40.080311
518.142700	-40.317932
518.815613	-40.520599
519.488525	-40.619656
520.161438	-40.781834
520.834351	-40.753094
521.507263	-40.822380
522.180176	-40.701523
522.853088	-40.638763
523.526001	-40.475834
524.198914	-40.264034
524.871826	-40.113983
525.544739	-39.769241
526.217651	-39.682144
526.890564	-39.261692
527.563477	-39.271976
528.236389	-38.874634
528.909302	-38.990070
529.582214	-38.747303
530.255127	-38.937016
530.928040	-38.984901
531.600952	-39.165600
532.273865	-39.555332
532.946777	-39.595932
533.619690	-40.088959
534.292603	-39.923683
534.965515	-39.986210
535.638428	-39.812450
536.311340	-39.380173
536.984253	-39.425575
537.657166	-39.134403
538.330078	-39.300793
539.002991	-39.620003
539.675903	-39.620136
540.348816	-40.010288
541.021729	-39.838306
541.694641	-39.484730
542.367554	-39.528996
543.040466	-39.288795
543.713379	-39.409344
544.386292	-39.887405
545.059204	-39.763687
545.732117	-39.663330
546.405029	-39.660831
547.077942	-39.323723
547.750854	-39.425804
548.423767	-39.908077
549.096680	-39.781044
549.769592	-39.498878
550.442505	-39.577915
551.115417	-39.557785
551.788330	-39.540913
552.461243	-39.819016
553.134155	-39.790554
553.807068	-39.382584
554.479980	-39.439499
555.152893	-39.910351
555.825806	-39.835949
556.498718	-39.372116
557.171631	-39.445240
557.844543	-39.912067
558.517456	-39.837975
559.190369	-39.383530
559.863281	-39.441639
560.536194	-39.908680
561.209106	-39.870800
561.882019	-39.419899
562.554932	-39.421829
563.227844	-39.815121
563.900757	-39.865456
564.573669	-39.611404
565.246582	-39.522976
565.919495	-39.528511
566.592407	-39.631165
567.265320	-39.921135
567.938232	-39.864834
568.611145	-39.422760
569.284058	-39.379833
569.956970	-39.675297
570.629883	-39.797512
571.302795	-39.921932
571.975708	-39.853897
572.648621	-39.425220
573.321533	-39.344955
573.994446	-39.533901
574.667358	-39.653187
575.340271	-40.000355
576.013184	-40.061741
576.686096	-39.747776
577.359009	-39.607922
578.031921	-39.310844
578.704834	-39.236053
579.377747	-39.456966
580.050659	-39.570354
580.723572	-39.965878
581.396484	-40.131317
582.069397	-40.130703
582.742310	-40.123680
583.415222	-39.735538
584.088135	-39.570213
584.761047	-39.228958
585.433960	-39.057682
586.106873	-38.975277
586.779785	-38.889328
587.452698	-39.047356
588.125610	-39.069260
588.798523	-39.371670
589.471436	-39.486538
590.144348	-39.830364
590.817261	-40.004040
591.490173	-40.304897
592.163086	-40.494282
592.835999	-40.696705
593.508911	-40.857800
594.181824	-40.937069
594.854736	-41.031334
595.527649	-40.988461
596.200562	-40.987228
596.873474	-40.841888
597.546387	-40.730579
598.219299	-40.517059
598.892212	-40.300964
599.565125	-40.066750
600.238037	-39.776371
600.910950	-39.579132
601.583862	-39.271179
602.256775	-39.171246
602.929688	-38.924377
603.602600	-38.971775
604.275513	-38.877419
604.948425	-39.087917
605.621338	-39.225826
606.294250	-39.529552
606.967163	-39.885773
607.640076	-40.057037
608.312988	-40.363224
608.985901	-40.160206
609.658813	-40.056767
610.331726	-39.714348
611.004639	-39.378307
611.677551	-39.363197
612.350464	-39.280693
613.023376	-39.613277
613.696289	-39.949539
614.369202	-40.052444
615.042114	-40.197441
615.715027	-39.809311
